"FinalFlux.wave","FinalFlux.flux"
110,2.09766386815112e-13
112.562229150883,3.52832451036097e-13
115.184140285599,4.13723459344062e-13
117.867123576137,4.85122897026568e-13
120.61260157575,5.68844284519372e-13
123.422029973216,6.67014115420391e-13
126.296898364657,7.99662549829703e-13
129.238731043348,1.00730719431124e-12
132.249087807915,1.26886995511703e-12
135.329564789362,1.59835149802495e-12
138.481795297358,2.01338797639275e-12
141.707450686245,2.49933204195976e-12
145.008241241205,2.98736557499643e-12
148.385917085082,3.57069526131309e-12
151.842269106317,4.2679291600189e-12
155.379129908503,5.51903795936167e-12
158.998374782052,8.08365849830508e-12
162.701922698503,1.18400226993142e-11
166.491737327983,1.73419173446863e-11
170.369828080373,2.54004662683077e-11
174.338251170723,3.72037113211784e-11
178.399110709482,4.40186814921949e-11
182.554559818132,5.03076617330732e-11
186.806801770792,5.74951530408302e-11
191.158091162431,6.57095263287754e-11
195.610735104282,7.49853999189568e-11
200.167094447098,8.50693208381052e-11
204.829585032915,9.65093118884202e-11
209.600678975957,1.09487735289457e-10
214.482905973385,1.23998119552303e-10
219.478854646577,1.39577341546878e-10
224.591173913648,1.57113949337565e-10
229.822574393944,1.76853870426787e-10
235.175829845246,1.99073930843241e-10
240.653778634451,2.56510548225918e-10
246.259325242517,3.68405537114338e-10
251.995441804455,5.29111339534333e-10
257.865169685192,7.44980993348973e-10
263.871621092144,8.30618239841066e-10
270.017980725353,9.26099681087422e-10
276.307507466054,1.03255692949186e-09
282.743536104575,1.15125167885789e-09
289.329479108492,1.26051057412382e-09
296.068828431961,1.35558332517994e-09
302.965157367198,1.45782684352586e-09
310.02212243909,1.56778197712227e-09
317.243465343927,1.66483493934677e-09
324.633014933303,1.75682330350374e-09
332.194689244222,1.85389436921886e-09
339.932497576495,1.95632897478472e-09
347.850542618522,2.06442347586117e-09
355.953022622591,2.17079551466676e-09
364.24423363085,2.28006119432647e-09
372.728571753123,2.39482669590438e-09
381.410535497785,2.51536884961128e-09
390.294728156933,2.64197841973922e-09
399.385860247112,2.77496080602512e-09
408.68875200689,2.90098847655221e-09
418.208335952617,3.02514804491465e-09
427.949659493709,3.15462152560061e-09
437.917887608847,3.2896363490414e-09
448.118305584524,3.43042967947606e-09
458.556321817369,3.56266433114922e-09
469.237470681752,3.66488805236668e-09
480.167415464183,3.77004488437098e-09
491.351951366059,3.87821898706926e-09
502.797008576363,3.98949693517349e-09
514.508655415918,4.10067952098909e-09
526.493101554902,4.21367427179285e-09
538.756701305291,4.32978260746561e-09
551.30595699,4.44909032323828e-09
564.147522390501,4.56470406169031e-09
577.28820627475,4.67824628346395e-09
590.734976007278,4.79461274881419e-09
604.494961243387,4.91387370783528e-09
618.575457709384,5.06303977699129e-09
632.983931070872,5.21778142128304e-09
647.728020891148,5.37725243321416e-09
662.815544681794,5.54236412887089e-09
678.25450204763,5.71603153494556e-09
694.053078928212,5.8951407285375e-09
710.219651938121,6.07986222553139e-09
726.762792808356,6.23872247643637e-09
743.69127293118,6.38842995948395e-09
761.01406801083,6.54172989764796e-09
778.740362822552,6.66080180446632e-09
796.879556082489,6.77251713227747e-09
815.44126543101,6.8861061556037e-09
834.435332532102,6.96631062058608e-09
853.871828291561,7.0376665498948e-09
873.76105819671,7.10975337808599e-09
894.11356778051,7.23331833296621e-09
914.940148212938,7.3610054052046e-09
936.251842022615,7.48668745375110e-09
958.059948951689,7.60507474667689e-09
980.376031947121,7.72533410267636e-09
1003.2119232915,1.080377838061e-08
1026.57973087669,1.62251659475637e-08
1050.49184462358,2.03368138536886e-08
1074.96094305139,2.05595121879488e-08
1100,2.14731164191743e-08
1125.62229150883,2.52136673557863e-08
1151.84140285599,2.91750930440759e-08
1178.67123576137,2.90222147909445e-08
1206.1260157575,2.88663573051812e-08
1234.22029973216,2.86509871362812e-08
1262.96898364657,2.8258484902386e-08
1292.38731043348,2.66055539120678e-08
1322.49087807915,2.61598558563755e-08
1353.29564789362,2.90425848310043e-08
1384.81795297358,3.07637513238713e-08
1417.07450686245,3.09896989262188e-08
1450.08241241205,3.41717667261935e-08
1483.85917085082,3.75083288471851e-08
1518.42269106317,3.32880068071748e-08
1553.79129908503,3.45533195537199e-08
1589.98374782052,4.03976366065097e-08
1627.01922698503,4.21550143766732e-08
1664.91737327983,4.46750134287011e-08
1703.69828080373,5.19445236736881e-08
1743.38251170723,5.96080625812291e-08
1783.99110709482,5.87816041169726e-08
1825.54559818132,5.55683356629453e-08
1868.06801770792,9.21351415804064e-08
1911.58091162431,1.34355195343421e-07
1956.10735104282,1.58229691048566e-07
2001.67094447098,2.14993671625115e-07
2048.29585032915,2.32158526574635e-07
2096.00678975957,2.59293915857421e-07
2144.82905973385,3.20395537805087e-07
2194.78854646577,3.36827347474022e-07
2245.91173913648,3.49618354613561e-07
2298.22574393944,4.58033695827226e-07
2351.75829845246,5.78193554419624e-07
2406.53778634451,6.34940090991194e-07
2462.59325242517,5.88138933929434e-07
2519.95441804455,6.9731126381631e-07
2578.65169685192,6.63164739560494e-07
2638.71621092144,4.28528476075617e-07
2700.17980725353,9.05034610642937e-07
2763.07507466054,9.06163968059923e-07
2827.43536104575,7.40245500416329e-07
2893.29479108492,1.4849693963711e-06
2960.68828431961,1.65758493823519e-06
3029.65157367198,8.38455190620375e-07
3100.2212243909,9.12610259410936e-07
3172.43465343927,2.72501244066897e-06
3246.33014933302,3.48114001984086e-06
3321.94689244222,4.13186555363218e-06
3399.32497576495,4.86195271704874e-06
3478.50542618522,4.9959352390771e-06
3559.53022622591,6.03107746858256e-06
3642.4423363085,7.28914821838523e-06
3727.28571753123,6.86485769742039e-06
3814.10535497785,8.35698990395477e-06
3902.94728156933,8.24554887660823e-06
3993.85860247112,9.69490238940401e-06
4086.8875200689,1.237015604504e-05
4182.08335952617,1.33656487569937e-05
4279.49659493709,1.33157748947747e-05
4379.17887608847,1.15132185267041e-05
4481.18305584524,2.33271270665597e-05
4585.56321817369,2.65778740490026e-05
4692.37470681752,2.71607957841809e-05
4801.67415464183,3.30374938814972e-05
4913.5195136606,3.72553835560368e-05
5027.97008576363,4.37421488915803e-05
5145.08655415918,4.55508465170594e-05
5264.93101554902,4.668124333779e-05
5387.56701305291,4.38547361432496e-05
5513.0595699,5.14008303503825e-05
5641.47522390501,4.79432871509488e-05
5772.8820627475,4.92443309320717e-05
5907.34976007278,6.06550449826193e-05
6044.94961243387,6.19967259949357e-05
6185.75457709384,6.54289566456701e-05
6329.83931070872,7.1061567387285e-05
6477.28020891148,7.44063080586675e-05
6628.15544681794,7.85516354573995e-05
6782.54502047631,7.41935439680851e-05
6940.53078928212,7.99385610120547e-05
7102.19651938121,8.43193252728785e-05
7267.62792808356,8.18611117644671e-05
7436.9127293118,8.90508697914354e-05
7610.1406801083,9.31673725029261e-05
7787.40362822552,9.33500965690993e-05
7968.7955608249,9.53058301493644e-05
8154.4126543101,0.000107188974171064
8344.35332532102,0.000112758216627401
8538.71828291561,0.000107421194188059
8737.6105819671,0.000111305715983491
8941.1356778051,0.000122091708587727
9149.40148212938,0.000122843584732401
9362.51842022614,0.000121502271764423
9580.59948951689,0.000125345574232688
9803.7603194712,0.000134333746086169
10032.119232915,0.0001465294581045
10265.7973087669,0.000145125349875934
10504.9184462358,0.000151831453792942
10749.6094305139,0.000155472071478259
11000,0.000161425077830778
11256.2229150883,0.000163867785004973
11518.4140285599,0.000167969464837938
11786.7123576137,0.000167549988232047
12061.260157575,0.000168052212839081
12342.2029973216,0.000169238646947894
12629.6898364657,0.000170243361463669
12923.8731043348,0.000175035879977783
13224.9087807915,0.000177368429359547
13532.9564789362,0.000179746164730879
13848.1795297358,0.000180536982432075
14170.7450686245,0.000184609838722605
14500.8241241205,0.000187009754381255
14838.5917085082,0.000190954998134553
15184.2269106318,0.000190598153196775
15537.9129908503,0.000188687908381222
15899.8374782052,0.000191899705802041
16270.1922698503,0.000198840916677043
16649.1737327983,0.000209541675333365
17036.9828080373,0.000215874464545482
17433.8251170723,0.000218883335370455
17839.9110709482,0.000227488381638305
18255.4559818132,0.000230668058499155
18680.6801770792,0.000229952882976678
19115.8091162431,0.000228746008772922
19561.0735104282,0.000226820759308267
20016.7094447098,0.000214725897731391
20482.9585032915,0.00020832751541609
20960.0678975957,0.000206834158877777
21448.2905973385,0.000202456424754646
21947.8854646577,0.000193325479401332
22459.1173913648,0.000193010875600673
22982.2574393945,0.000193157092933469
23517.5829845246,0.000187446886368053
24065.3778634451,0.00018029073107792
24625.9325242517,0.000175710738607269
25199.5441804455,0.000169530251249376
25786.5169685192,0.000153675133633539
26387.1621092144,0.000132427983366192
27001.7980725354,0.000121566011825302
27630.7507466054,0.000109712414056065
28274.3536104575,0.000113543458538699
28932.9479108492,0.000120379028393538
29606.8828431961,0.000119029062345765
30296.5157367198,0.000123290748501896
31002.212243909,0.000121034133823244
31724.3465343927,0.000116281455024278
32463.3014933303,0.000108040498372277
33219.4689244222,0.000103090755389959
33993.2497576495,0.000102090553589921
34785.0542618522,0.000100741627702228
35595.3022622591,0.000101634161653179
36424.423363085,0.00011855887584585
37272.8571753123,0.000101456412081101
38141.0535497785,0.000101194288699614
39029.4728156934,9.73917163571348e-05
39938.5860247112,9.27240371738327e-05
40868.875200689,8.71619840600962e-05
41820.8335952617,8.24004096545785e-05
42794.9659493709,7.98063586719014e-05
43791.7887608847,7.81399298246783e-05
44811.8305584523,7.70169542491174e-05
45855.6321817369,7.62194732953054e-05
46923.7470681752,7.59256414756462e-05
48016.7415464183,6.73741850239695e-05
49135.195136606,6.35074418761717e-05
50279.7008576363,5.99755615175572e-05
51450.8655415918,5.92866919991214e-05
52649.3101554902,5.81551028001535e-05
53875.670130529,5.66929134961018e-05
55130.595699,5.57883071675324e-05
56414.7522390501,6.15773421472305e-05
57728.8206274751,6.47993934457095e-05
59073.4976007279,6.1146931764561e-05
60449.4961243387,5.81039534100468e-05
61857.5457709384,6.43349422936653e-05
63298.3931070872,6.62581358551894e-05
64772.8020891147,6.67450146468565e-05
66281.5544681794,7.93343147251402e-05
67825.4502047631,0.000138826805330962
69405.3078928214,0.000121093808753101
71021.9651938122,8.27662055243624e-05
72676.2792808356,7.94684286872974e-05
74369.127293118,8.01519154476722e-05
76101.406801083,8.82022824974011e-05
77874.0362822551,9.72398467332755e-05
79687.9556082488,0.000112292176768489
81544.126543101,0.000164343389146936
83443.5332532102,0.000252390313190746
85387.1828291562,0.000244955131171435
87376.105819671,0.000202653321836051
89411.356778051,0.000149054627061699
91494.0148212938,0.000144607539085777
93625.1842022614,0.000165364101666103
95805.9948951688,0.000146165924663873
98037.6031947121,9.62629860163017e-05
100321.19232915,7.93781850187687e-05
102657.973087669,7.63762123063062e-05
105049.184462358,7.64776112908599e-05
107496.094305139,7.52807869115813e-05
110000,7.51033610714129e-05
112562.229150883,7.66796545537421e-05
115184.140285599,9.56920607037627e-05
117867.123576137,0.00010069412760149
120612.60157575,0.000128650614300781
123422.029973216,0.000339480387511657
126296.898364657,0.000200594240490649
129238.731043348,0.000159653905338809
132249.087807915,0.000182358849311649
135329.564789362,0.000185717484301127
138481.795297358,0.000209770963805481
141707.450686245,0.000221084034775616
145008.241241205,0.000144914652964335
148385.917085082,0.000126987521762988
151842.269106318,0.000117051564027045
155379.129908503,0.000112946033763427
158998.374782052,0.000108793575565679
162701.922698503,0.000106747973166252
166491.737327983,0.000103654189729853
170369.828080373,0.000129953525923141
174338.251170723,0.000106882969094774
178399.110709482,0.000110367782760949
182554.559818132,0.000123654137773473
186806.801770792,0.000129902378715222
191158.091162431,0.000122759780941508
195610.735104282,0.000108182446275338
200167.094447098,0.000100446808901307
204829.585032915,0.000118938823964038
209600.678975957,9.80452415367611e-05
214482.905973385,9.54295718368308e-05
219478.854646577,9.35218247733765e-05
224591.173913648,9.36188577862831e-05
229822.574393945,9.37524335843502e-05
235175.829845246,9.21137671729536e-05
240653.778634451,9.33774664020536e-05
246259.325242517,9.73669827368913e-05
251995.441804455,9.87746933841741e-05
257865.169685192,0.000101153735968283
263871.621092144,0.000104232491249688
270017.980725354,0.000104965563441118
276307.507466054,0.000107848485763874
282743.536104575,0.000112245265618276
289329.479108492,0.000117107762755124
296068.828431961,0.000124777132218535
302965.157367198,0.000131482858411094
310022.12243909,0.000141103172708778
317243.465343927,0.00014828046895543
324633.014933303,0.000157926928489415
332194.689244222,0.000169258979335857
339932.497576495,0.000181986055148882
347850.542618522,0.000196266962207069
355953.022622591,0.00021212675115584
364244.23363085,0.000229239587577926
372728.571753123,0.000245392083125356
381410.535497785,0.000260827152460318
390294.728156934,0.000277825697710021
399385.860247112,0.000295949165872256
408688.75200689,0.000315271212742403
418208.335952617,0.000335870352669594
427949.659493709,0.000357830277395193
437917.887608847,0.000381240195889829
448118.305584523,0.000406195196568469
458556.321817369,0.00043279663335386
469237.470681752,0.000459813558968788
480167.415464183,0.000481185740634903
491351.95136606,0.000503559034988153
502797.008576363,0.000526979981117521
514508.655415918,0.000551497297755747
526493.101554902,0.000577161984620415
538756.70130529,0.00060402742850062
551305.95699,0.000632149514309896
564147.522390501,0.000661586741336383
577288.206274751,0.000692400344932118
590734.976007279,0.00072465442389449
604494.961243387,0.000758541260361739
618575.457709384,0.000794353461563348
632983.931070872,0.000831861114281906
647728.020891147,0.000871144271360312
662815.544681794,0.000912286852564911
678254.50204763,0.000955376910051056
694053.078928214,0.0010005060562472
710219.651938122,0.00104777061278229
726762.792808356,0.00109727145895653
743691.27293118,0.0011491142470535
761014.06801083,0.0012034096278394
778740.362822551,0.00127140298410207
796879.556082488,0.00135910573594561
815441.26543101,0.00145286254683615
834435.332532102,0.0015530911345344
853871.828291562,0.00166023804697806
873761.05819671,0.00177478065171088
894113.56778051,0.00189722926260957
914940.148212938,0.00202812941338327
936251.842022614,0.00216806428797392
958059.948951688,0.00231765731868529
980376.031947121,0.00247757496361522
1003211.9232915,0.00262114630318404
1026579.73087669,0.00275188402914651
1050491.84462358,0.00288914446848852
1074960.94305139,0.00303325297050955
1100000,0.00318455111630348
1125622.29150883,0.00334339752840945
1151841.40285599,0.00351016872085558
1178671.23576137,0.00368525999161051
1206126.0157575,0.00386908635955827
1234220.29973216,0.00406208354821708
1262968.98364657,0.00426470901853414
1292387.31043348,0.00440216621407528
1322490.87807915,0.00448249926639701
1353295.64789362,0.00456429875205683
1384817.95297358,0.00464759141871901
1417074.50686245,0.00473240450287528
1450082.41241205,0.0048187657387356
1483859.17085082,0.00490670336728284
1518422.69106317,0.00499624614549371
1553791.29908503,0.0050874233557294
1589983.74782052,0.00518026481529871
1627019.22698503,0.00527480088619687
1664917.37327983,0.00522888233748999
1703698.28080373,0.00517962773545427
1743382.51170723,0.00513083718800826
1783991.10709482,0.00508244373104127
1825545.59818132,0.0050345710118849
1868068.01770792,0.00498714921700054
1911580.91162431,0.00494017409902762
1956107.35104282,0.00489364145061248
2001670.94447098,0.00484754710403147
2048295.85032916,0.0048018869308177
2096006.78975957,0.0047566568413913
2144829.05973385,0.00461284412627802
2194788.54646577,0.00446244455199934
2245911.73913648,0.00431694868383426
2298225.74393944,0.0041761966387927
2351758.29845246,0.00404003374679286
2406537.78634451,0.00390831038069694
2462593.25242518,0.0037808817918883
2519954.41804455,0.0036576079512097
2578651.69685192,0.00353835339508748
2638716.21092144,0.00342298707667297
2700179.80725353,0.00330632358521192
2763075.07466054,0.00314041815508982
2827435.36104575,0.00298283756403281
2893294.79108492,0.00283316408644018
2960688.28431961,0.00269100095743804
3029651.57367199,0.00255597132110734
3100221.2243909,0.00242771723148808
3172434.65343927,0.0023058987037111
3246330.14933302,0.00219019281274258
3321946.89244222,0.0020802928373519
3399324.97576495,0.00197590744703365
3478505.42618522,0.00186879208842996
3559530.22622591,0.0017505927219722
3642442.33630851,0.00163986935582368
3727285.71753123,0.00153614913989816
3814105.35497785,0.00143898913143883
3902947.28156933,0.00134797440340743
3993858.60247112,0.0012627162725161
4086887.5200689,0.00118285063933446
4182083.35952617,0.00110803643338341
4279496.59493709,0.00103795415657536
4379178.87608848,0.000972304518780457
4481183.05584524,0.000906499693598573
4585563.21817369,0.000840633541808576
4692374.70681752,0.000779553216182956
4801674.15464182,0.000722910979204744
4913519.5136606,0.000670384359920475
5027970.08576363,0.000621674318074928
5145086.55415918,0.000576503541639566
5264931.01554902,0.000534614868042377
5387567.01305291,0.000495769820110938
5513059.5699,0.000459747248393681
5641475.22390501,0.000426342072129892
5772882.0627475,0.000393817090971195
5907349.76007279,0.000362685980670673
6044949.61243387,0.000334015774304397
6185754.57709384,0.000307611938233341
6329839.31070872,0.000283295316638065
6477280.20891149,0.000260900915907179
6628155.44681794,0.000240276785119501
6782545.0204763,0.000221282985023718
6940530.78928212,0.000203790638519881
7102196.51938122,0.0001876810562
7267627.92808356,0.000172844931014393
7436912.7293118,0.000158791192556135
7610140.6801083,0.000145739400209663
7787403.62822553,0.000133760395847921
7968795.5608249,0.000122766001998452
8154412.6543101,0.000112675288908531
8344353.32532102,0.000103413978821115
8538718.2829156,9.49138992161426e-05
8737610.5819671,8.71124809924885e-05
8941135.6778051,7.99522978967035e-05
9149401.48212938,7.33806438082555e-05
9362518.42022614,6.73491447696849e-05
9580599.4895169,6.17485822858648e-05
9803760.3194712,5.66036099346754e-05
10032119.232915,5.18873233850799e-05
10265797.3087669,4.75640039773957e-05
10504918.4462358,4.3600909177216e-05
10749609.4305139,3.99680246007736e-05
1.1e+07,3.66378367018733e-05
11256222.9150883,3.35851243988464e-05
11518414.0285599,3.07867680634185e-05
11786712.3576137,2.82215744248752e-05
12061260.157575,2.58701160634375e-05
12342202.9973216,2.37651022408875e-05
12629689.8364657,2.18388884586749e-05
12923873.1043348,2.00687985381306e-05
13224908.7807915,1.84421782970409e-05
13532956.4789362,1.69473992024801e-05
13848179.5297359,1.557377523968e-05
14170745.0686245,1.43114865188624e-05
14500824.1241205,1.31515090739031e-05
14838591.7085082,1.20855503509711e-05
15184226.9106317,1.11059899259538e-05
15537912.9908503,1.02058250268657e-05
15899837.4782052,9.42979488964823e-06
16270192.2698503,8.72044626426787e-06
16649173.7327983,8.06445781036709e-06
17036982.8080373,7.45781555259093e-06
17433825.1170723,6.89680746360502e-06
17839911.0709482,6.37800075030187e-06
18255455.9818132,5.89822084863422e-06
18680680.1770792,5.45453199854461e-06
19115809.1162431,5.04421928013032e-06
19561073.5104282,4.66477200112264e-06
20016709.4447098,4.31386833402998e-06
20482958.5032916,4.03730002334611e-06
20960067.8975957,3.78577334114111e-06
21448290.5973385,3.54991695133331e-06
21947885.4646577,3.32875458348626e-06
22459117.3913649,3.12137078951072e-06
